# Si3N4 Density=3.44 Thickness=0.2 microns
# Photon Energy (eV), Transmission
    10.000      0.89852E-13
    29.980      0.27077E-05
    49.960      0.55561E-02
    69.940      0.49180E-01
    89.920      0.16559    
    109.90      0.21275E-01
    129.88      0.57339E-02
    149.86      0.11131E-01
    169.84      0.12956E-01
    189.82      0.37344E-01
    209.80      0.61118E-01
    229.78      0.90847E-01
    249.76      0.12884    
    269.74      0.17317    
    289.72      0.21933    
    309.70      0.26689    
    329.68      0.31504    
    349.66      0.36131    
    369.64      0.40620    
    389.62      0.45260    
    409.60      0.49560    
    429.58      0.25780    
    449.56      0.29577    
    469.54      0.33321    
    489.52      0.36995    
    509.50      0.40520    
    529.48      0.43880    
    549.46      0.47063    
    569.44      0.50108    
    589.42      0.53109    
    609.40      0.55972    
    629.38      0.58647    
    649.36      0.61140    
    669.34      0.63461    
    689.32      0.65621    
    709.30      0.67595    
    729.28      0.69414    
    749.26      0.71108    
    769.24      0.72691    
    789.22      0.74190    
    809.20      0.75623    
    829.18      0.76972    
    849.16      0.78226    
    869.14      0.79388    
    889.12      0.80468    
    909.10      0.81493    
    929.08      0.82470    
    949.06      0.83387    
    969.04      0.84245    
    989.02      0.85047    
    1009.0      0.85797    
    1029.0      0.86497    
    1049.0      0.87155    
    1068.9      0.87776    
    1088.9      0.88356    
    1108.9      0.88887    
    1128.9      0.89380    
    1148.9      0.89845    
    1168.8      0.90283    
    1188.8      0.90696    
    1208.8      0.91086    
    1228.8      0.91455    
    1248.8      0.91805    
    1268.7      0.92138    
    1288.7      0.92456    
    1308.7      0.92757    
    1328.7      0.93043    
    1348.7      0.93314    
    1368.6      0.93571    
    1388.6      0.93815    
    1408.6      0.94047    
    1428.6      0.94267    
    1448.6      0.94477    
    1468.5      0.94677    
    1488.5      0.94867    
    1508.5      0.95050    
    1528.5      0.95226    
    1548.5      0.95394    
    1568.4      0.95553    
    1588.4      0.95706    
    1608.4      0.95851    
    1628.4      0.95990    
    1648.4      0.96123    
    1668.3      0.96250    
    1688.3      0.96372    
    1708.3      0.96488    
    1728.3      0.96599    
    1748.3      0.96708    
    1768.2      0.96812    
    1788.2      0.96912    
    1808.2      0.97008    
    1828.2      0.97101    
    1848.2      0.85672    
    1868.1      0.86016    
    1888.1      0.86349    
    1908.1      0.86672    
    1928.1      0.86984    
    1948.1      0.87286    
    1968.0      0.87579    
    1988.0      0.87863    
    2008.0      0.88139    
    2028.0      0.88406    
    2048.0      0.88667    
    2067.9      0.88919    
    2087.9      0.89166    
    2107.9      0.89408    
    2127.9      0.89643    
    2147.9      0.89872    
    2167.8      0.90094    
    2187.8      0.90311    
    2207.8      0.90521    
    2227.8      0.90726    
    2247.8      0.90925    
    2267.7      0.91119    
    2287.7      0.91308    
    2307.7      0.91492    
    2327.7      0.91671    
    2347.7      0.91845    
    2367.6      0.92015    
    2387.6      0.92180    
    2407.6      0.92341    
    2427.6      0.92498    
    2447.6      0.92650    
    2467.5      0.92799    
    2487.5      0.92944    
    2507.5      0.93086    
    2527.5      0.93223    
    2547.5      0.93357    
    2567.4      0.93488    
    2587.4      0.93615    
    2607.4      0.93740    
    2627.4      0.93861    
    2647.4      0.93979    
    2667.3      0.94095    
    2687.3      0.94207    
    2707.3      0.94317    
    2727.3      0.94424    
    2747.3      0.94529    
    2767.2      0.94631    
    2787.2      0.94730    
    2807.2      0.94827    
    2827.2      0.94922    
    2847.2      0.95015    
    2867.1      0.95105    
    2887.1      0.95194    
    2907.1      0.95280    
    2927.1      0.95364    
    2947.1      0.95447    
    2967.0      0.95527    
    2987.0      0.95606    
    3007.0      0.95683    
    3027.0      0.95758    
    3047.0      0.95831    
    3066.9      0.95903    
    3086.9      0.95973    
    3106.9      0.96042    
    3126.9      0.96109    
    3146.9      0.96175    
    3166.8      0.96239    
    3186.8      0.96302    
    3206.8      0.96363    
    3226.8      0.96423    
    3246.8      0.96482    
    3266.7      0.96540    
    3286.7      0.96596    
    3306.7      0.96651    
    3326.7      0.96705    
    3346.7      0.96758    
    3366.6      0.96810    
    3386.6      0.96860    
    3406.6      0.96910    
    3426.6      0.96959    
    3446.6      0.97006    
    3466.5      0.97053    
    3486.5      0.97099    
    3506.5      0.97143    
    3526.5      0.97187    
    3546.5      0.97230    
    3566.4      0.97272    
    3586.4      0.97314    
    3606.4      0.97354    
    3626.4      0.97394    
    3646.4      0.97433    
    3666.3      0.97471    
    3686.3      0.97509    
    3706.3      0.97545    
    3726.3      0.97581    
    3746.3      0.97616    
    3766.2      0.97651    
    3786.2      0.97685    
    3806.2      0.97718    
    3826.2      0.97751    
    3846.2      0.97783    
    3866.1      0.97815    
    3886.1      0.97846    
    3906.1      0.97876    
    3926.1      0.97906    
    3946.1      0.97935    
    3966.0      0.97964    
    3986.0      0.97992    
    4006.0      0.98020    
    4026.0      0.98047    
    4046.0      0.98073    
    4065.9      0.98100    
    4085.9      0.98125    
    4105.9      0.98151    
    4125.9      0.98175    
    4145.9      0.98200    
    4165.8      0.98224    
    4185.8      0.98247    
    4205.8      0.98270    
    4225.8      0.98293    
    4245.8      0.98315    
    4265.7      0.98337    
    4285.7      0.98359    
    4305.7      0.98380    
    4325.7      0.98401    
    4345.7      0.98422    
    4365.6      0.98442    
    4385.6      0.98462    
    4405.6      0.98481    
    4425.6      0.98500    
    4445.6      0.98519    
    4465.5      0.98538    
    4485.5      0.98556    
    4505.5      0.98574    
    4525.5      0.98591    
    4545.5      0.98609    
    4565.4      0.98626    
    4585.4      0.98643    
    4605.4      0.98659    
    4625.4      0.98675    
    4645.4      0.98691    
    4665.3      0.98707    
    4685.3      0.98723    
    4705.3      0.98738    
    4725.3      0.98753    
    4745.3      0.98768    
    4765.2      0.98782    
    4785.2      0.98797    
    4805.2      0.98811    
    4825.2      0.98824    
    4845.2      0.98838    
    4865.1      0.98852    
    4885.1      0.98865    
    4905.1      0.98878    
    4925.1      0.98891    
    4945.1      0.98903    
    4965.0      0.98916    
    4985.0      0.98928    
    5005.0      0.98940    
    5025.0      0.98952    
    5045.0      0.98964    
    5064.9      0.98976    
    5084.9      0.98987    
    5104.9      0.98998    
    5124.9      0.99009    
    5144.9      0.99020    
    5164.8      0.99031    
    5184.8      0.99041    
    5204.8      0.99052    
    5224.8      0.99062    
    5244.8      0.99072    
    5264.7      0.99082    
    5284.7      0.99092    
    5304.7      0.99102    
    5324.7      0.99111    
    5344.7      0.99121    
    5364.6      0.99130    
    5384.6      0.99139    
    5404.6      0.99148    
    5424.6      0.99157    
    5444.6      0.99166    
    5464.5      0.99175    
    5484.5      0.99183    
    5504.5      0.99192    
    5524.5      0.99200    
    5544.5      0.99208    
    5564.4      0.99217    
    5584.4      0.99225    
    5604.4      0.99232    
    5624.4      0.99240    
    5644.4      0.99248    
    5664.3      0.99256    
    5684.3      0.99263    
    5704.3      0.99270    
    5724.3      0.99278    
    5744.3      0.99285    
    5764.2      0.99292    
    5784.2      0.99299    
    5804.2      0.99306    
    5824.2      0.99313    
    5844.2      0.99319    
    5864.1      0.99326    
    5884.1      0.99333    
    5904.1      0.99339    
    5924.1      0.99345    
    5944.1      0.99352    
    5964.0      0.99358    
    5984.0      0.99364    
    6004.0      0.99370    
    6024.0      0.99376    
    6044.0      0.99382    
    6063.9      0.99388    
    6083.9      0.99394    
    6103.9      0.99399    
    6123.9      0.99405    
    6143.9      0.99411    
    6163.8      0.99416    
    6183.8      0.99422    
    6203.8      0.99427    
    6223.8      0.99432    
    6243.8      0.99437    
    6263.7      0.99443    
    6283.7      0.99448    
    6303.7      0.99453    
    6323.7      0.99458    
    6343.7      0.99463    
    6363.6      0.99467    
    6383.6      0.99472    
    6403.6      0.99477    
    6423.6      0.99482    
    6443.6      0.99486    
    6463.5      0.99491    
    6483.5      0.99495    
    6503.5      0.99500    
    6523.5      0.99504    
    6543.5      0.99509    
    6563.4      0.99513    
    6583.4      0.99517    
    6603.4      0.99521    
    6623.4      0.99526    
    6643.4      0.99530    
    6663.3      0.99534    
    6683.3      0.99538    
    6703.3      0.99542    
    6723.3      0.99546    
    6743.3      0.99550    
    6763.2      0.99553    
    6783.2      0.99557    
    6803.2      0.99561    
    6823.2      0.99565    
    6843.2      0.99568    
    6863.1      0.99572    
    6883.1      0.99576    
    6903.1      0.99579    
    6923.1      0.99583    
    6943.1      0.99586    
    6963.0      0.99590    
    6983.0      0.99593    
    7003.0      0.99596    
    7023.0      0.99600    
    7043.0      0.99603    
    7062.9      0.99606    
    7082.9      0.99609    
    7102.9      0.99613    
    7122.9      0.99616    
    7142.9      0.99619    
    7162.8      0.99622    
    7182.8      0.99625    
    7202.8      0.99628    
    7222.8      0.99631    
    7242.8      0.99634    
    7262.7      0.99637    
    7282.7      0.99640    
    7302.7      0.99643    
    7322.7      0.99646    
    7342.7      0.99648    
    7362.6      0.99651    
    7382.6      0.99654    
    7402.6      0.99657    
    7422.6      0.99659    
    7442.6      0.99662    
    7462.5      0.99665    
    7482.5      0.99667    
    7502.5      0.99670    
    7522.5      0.99672    
    7542.5      0.99675    
    7562.4      0.99677    
    7582.4      0.99680    
    7602.4      0.99682    
    7622.4      0.99685    
    7642.4      0.99687    
    7662.3      0.99689    
    7682.3      0.99692    
    7702.3      0.99694    
    7722.3      0.99696    
    7742.3      0.99699    
    7762.2      0.99701    
    7782.2      0.99703    
    7802.2      0.99705    
    7822.2      0.99708    
    7842.2      0.99710    
    7862.1      0.99712    
    7882.1      0.99714    
    7902.1      0.99716    
    7922.1      0.99718    
    7942.1      0.99720    
    7962.0      0.99722    
    7982.0      0.99724    
    8002.0      0.99726    
    8022.0      0.99728    
    8042.0      0.99730    
    8061.9      0.99732    
    8081.9      0.99734    
    8101.9      0.99736    
    8121.9      0.99738    
    8141.9      0.99740    
    8161.8      0.99742    
    8181.8      0.99744    
    8201.8      0.99745    
    8221.8      0.99747    
    8241.8      0.99749    
    8261.7      0.99751    
    8281.7      0.99752    
    8301.7      0.99754    
    8321.7      0.99756    
    8341.7      0.99758    
    8361.6      0.99759    
    8381.6      0.99761    
    8401.6      0.99763    
    8421.6      0.99764    
    8441.6      0.99766    
    8461.5      0.99768    
    8481.5      0.99769    
    8501.5      0.99771    
    8521.5      0.99772    
    8541.5      0.99774    
    8561.4      0.99775    
    8581.4      0.99777    
    8601.4      0.99778    
    8621.4      0.99780    
    8641.4      0.99781    
    8661.3      0.99783    
    8681.3      0.99784    
    8701.3      0.99786    
    8721.3      0.99787    
    8741.3      0.99789    
    8761.2      0.99790    
    8781.2      0.99791    
    8801.2      0.99793    
    8821.2      0.99794    
    8841.2      0.99796    
    8861.1      0.99797    
    8881.1      0.99798    
    8901.1      0.99800    
    8921.1      0.99801    
    8941.1      0.99802    
    8961.0      0.99804    
    8981.0      0.99805    
    9001.0      0.99806    
    9021.0      0.99807    
    9041.0      0.99809    
    9060.9      0.99810    
    9080.9      0.99811    
    9100.9      0.99812    
    9120.9      0.99813    
    9140.9      0.99815    
    9160.8      0.99816    
    9180.8      0.99817    
    9200.8      0.99818    
    9220.8      0.99819    
    9240.8      0.99820    
    9260.7      0.99822    
    9280.7      0.99823    
    9300.7      0.99824    
    9320.7      0.99825    
    9340.7      0.99826    
    9360.6      0.99827    
    9380.6      0.99828    
    9400.6      0.99829    
    9420.6      0.99830    
    9440.6      0.99831    
    9460.5      0.99832    
    9480.5      0.99834    
    9500.5      0.99835    
    9520.5      0.99836    
    9540.5      0.99837    
    9560.4      0.99838    
    9580.4      0.99839    
    9600.4      0.99840    
    9620.4      0.99841    
    9640.4      0.99841    
    9660.3      0.99842    
    9680.3      0.99843    
    9700.3      0.99844    
    9720.3      0.99845    
    9740.3      0.99846    
    9760.2      0.99847    
    9780.2      0.99848    
    9800.2      0.99849    
    9820.2      0.99850    
    9840.2      0.99851    
    9860.1      0.99852    
    9880.1      0.99853    
    9900.1      0.99853    
    9920.1      0.99854    
    9940.1      0.99855    
    9960.0      0.99856    
    9980.0      0.99857    
    10000.      0.99858    
