# Al Density=2.6989 Thickness=4.00000E-02 microns
# Photon Energy (eV), Transmission
    10.000      0.52337E-02
    29.980      0.90712    
    49.960      0.92621    
    69.940      0.94180    
    89.920      0.33616    
    109.90      0.29596    
    129.88      0.29103    
    149.86      0.33841    
    169.84      0.39176    
    189.82      0.46243    
    209.80      0.54036    
    229.78      0.60351    
    249.76      0.65080    
    269.74      0.69206    
    289.72      0.73534    
    309.70      0.77115    
    329.68      0.80092    
    349.66      0.82581    
    369.64      0.84573    
    389.62      0.86184    
    409.60      0.87570    
    429.58      0.88769    
    449.56      0.89872    
    469.54      0.90857    
    489.52      0.91715    
    509.50      0.92477    
    529.48      0.93156    
    549.46      0.93750    
    569.44      0.94287    
    589.42      0.94772    
    609.40      0.95205    
    629.38      0.95591    
    649.36      0.95948    
    669.34      0.96276    
    689.32      0.96546    
    709.30      0.96783    
    729.28      0.97010    
    749.26      0.97216    
    769.24      0.97404    
    789.22      0.97576    
    809.20      0.97734    
    829.18      0.97878    
    849.16      0.98011    
    869.14      0.98132    
    889.12      0.98244    
    909.10      0.98346    
    929.08      0.98441    
    949.06      0.98529    
    969.04      0.98610    
    989.02      0.98685    
    1009.0      0.98755    
    1029.0      0.98818    
    1049.0      0.98878    
    1068.9      0.98934    
    1088.9      0.98987    
    1108.9      0.99037    
    1128.9      0.99083    
    1148.9      0.99126    
    1168.8      0.99166    
    1188.8      0.99204    
    1208.8      0.99240    
    1228.8      0.99273    
    1248.8      0.99305    
    1268.7      0.99334    
    1288.7      0.99362    
    1308.7      0.99388    
    1328.7      0.99412    
    1348.7      0.99435    
    1368.6      0.99457    
    1388.6      0.99478    
    1408.6      0.99498    
    1428.6      0.99516    
    1448.6      0.99534    
    1468.5      0.99551    
    1488.5      0.99567    
    1508.5      0.99584    
    1528.5      0.99599    
    1548.5      0.99614    
    1568.4      0.95659    
    1588.4      0.95784    
    1608.4      0.95904    
    1628.4      0.96020    
    1648.4      0.96130    
    1668.3      0.96237    
    1688.3      0.96339    
    1708.3      0.96438    
    1728.3      0.96533    
    1748.3      0.96627    
    1768.2      0.96719    
    1788.2      0.96807    
    1808.2      0.96893    
    1828.2      0.96975    
    1848.2      0.97055    
    1868.1      0.97131    
    1888.1      0.97205    
    1908.1      0.97276    
    1928.1      0.97345    
    1948.1      0.97411    
    1968.0      0.97475    
    1988.0      0.97537    
    2008.0      0.97596    
    2028.0      0.97653    
    2048.0      0.97710    
    2067.9      0.97765    
    2087.9      0.97819    
    2107.9      0.97871    
    2127.9      0.97921    
    2147.9      0.97970    
    2167.8      0.98018    
    2187.8      0.98064    
    2207.8      0.98108    
    2227.8      0.98152    
    2247.8      0.98194    
    2267.7      0.98235    
    2287.7      0.98274    
    2307.7      0.98313    
    2327.7      0.98350    
    2347.7      0.98386    
    2367.6      0.98422    
    2387.6      0.98456    
    2407.6      0.98489    
    2427.6      0.98522    
    2447.6      0.98553    
    2467.5      0.98584    
    2487.5      0.98613    
    2507.5      0.98642    
    2527.5      0.98671    
    2547.5      0.98698    
    2567.4      0.98725    
    2587.4      0.98751    
    2607.4      0.98776    
    2627.4      0.98801    
    2647.4      0.98825    
    2667.3      0.98848    
    2687.3      0.98871    
    2707.3      0.98893    
    2727.3      0.98914    
    2747.3      0.98936    
    2767.2      0.98956    
    2787.2      0.98976    
    2807.2      0.98996    
    2827.2      0.99015    
    2847.2      0.99033    
    2867.1      0.99051    
    2887.1      0.99069    
    2907.1      0.99086    
    2927.1      0.99103    
    2947.1      0.99119    
    2967.0      0.99135    
    2987.0      0.99151    
    3007.0      0.99166    
    3027.0      0.99181    
    3047.0      0.99196    
    3066.9      0.99210    
    3086.9      0.99224    
    3106.9      0.99237    
    3126.9      0.99251    
    3146.9      0.99264    
    3166.8      0.99276    
    3186.8      0.99289    
    3206.8      0.99301    
    3226.8      0.99312    
    3246.8      0.99324    
    3266.7      0.99335    
    3286.7      0.99346    
    3306.7      0.99357    
    3326.7      0.99368    
    3346.7      0.99378    
    3366.6      0.99388    
    3386.6      0.99398    
    3406.6      0.99408    
    3426.6      0.99417    
    3446.6      0.99427    
    3466.5      0.99436    
    3486.5      0.99445    
    3506.5      0.99453    
    3526.5      0.99462    
    3546.5      0.99470    
    3566.4      0.99479    
    3586.4      0.99487    
    3606.4      0.99494    
    3626.4      0.99502    
    3646.4      0.99510    
    3666.3      0.99517    
    3686.3      0.99524    
    3706.3      0.99532    
    3726.3      0.99539    
    3746.3      0.99545    
    3766.2      0.99552    
    3786.2      0.99559    
    3806.2      0.99565    
    3826.2      0.99571    
    3846.2      0.99578    
    3866.1      0.99584    
    3886.1      0.99590    
    3906.1      0.99596    
    3926.1      0.99601    
    3946.1      0.99607    
    3966.0      0.99612    
    3986.0      0.99618    
    4006.0      0.99623    
    4026.0      0.99628    
    4046.0      0.99634    
    4065.9      0.99639    
    4085.9      0.99644    
    4105.9      0.99648    
    4125.9      0.99653    
    4145.9      0.99658    
    4165.8      0.99663    
    4185.8      0.99667    
    4205.8      0.99671    
    4225.8      0.99676    
    4245.8      0.99680    
    4265.7      0.99684    
    4285.7      0.99688    
    4305.7      0.99693    
    4325.7      0.99697    
    4345.7      0.99700    
    4365.6      0.99704    
    4385.6      0.99708    
    4405.6      0.99712    
    4425.6      0.99716    
    4445.6      0.99719    
    4465.5      0.99723    
    4485.5      0.99726    
    4505.5      0.99730    
    4525.5      0.99733    
    4545.5      0.99736    
    4565.4      0.99740    
    4585.4      0.99743    
    4605.4      0.99746    
    4625.4      0.99749    
    4645.4      0.99752    
    4665.3      0.99755    
    4685.3      0.99758    
    4705.3      0.99761    
    4725.3      0.99764    
    4745.3      0.99767    
    4765.2      0.99769    
    4785.2      0.99772    
    4805.2      0.99775    
    4825.2      0.99778    
    4845.2      0.99780    
    4865.1      0.99783    
    4885.1      0.99785    
    4905.1      0.99788    
    4925.1      0.99790    
    4945.1      0.99793    
    4965.0      0.99795    
    4985.0      0.99797    
    5005.0      0.99800    
    5025.0      0.99802    
    5045.0      0.99804    
    5064.9      0.99806    
    5084.9      0.99808    
    5104.9      0.99811    
    5124.9      0.99813    
    5144.9      0.99815    
    5164.8      0.99817    
    5184.8      0.99819    
    5204.8      0.99821    
    5224.8      0.99823    
    5244.8      0.99825    
    5264.7      0.99827    
    5284.7      0.99829    
    5304.7      0.99830    
    5324.7      0.99832    
    5344.7      0.99834    
    5364.6      0.99836    
    5384.6      0.99837    
    5404.6      0.99839    
    5424.6      0.99841    
    5444.6      0.99843    
    5464.5      0.99844    
    5484.5      0.99846    
    5504.5      0.99847    
    5524.5      0.99849    
    5544.5      0.99851    
    5564.4      0.99852    
    5584.4      0.99854    
    5604.4      0.99855    
    5624.4      0.99857    
    5644.4      0.99858    
    5664.3      0.99860    
    5684.3      0.99861    
    5704.3      0.99862    
    5724.3      0.99864    
    5744.3      0.99865    
    5764.2      0.99866    
    5784.2      0.99868    
    5804.2      0.99869    
    5824.2      0.99870    
    5844.2      0.99872    
    5864.1      0.99873    
    5884.1      0.99874    
    5904.1      0.99875    
    5924.1      0.99877    
    5944.1      0.99878    
    5964.0      0.99879    
    5984.0      0.99880    
    6004.0      0.99881    
    6024.0      0.99882    
    6044.0      0.99884    
    6063.9      0.99885    
    6083.9      0.99886    
    6103.9      0.99887    
    6123.9      0.99888    
    6143.9      0.99889    
    6163.8      0.99890    
    6183.8      0.99891    
    6203.8      0.99892    
    6223.8      0.99893    
    6243.8      0.99894    
    6263.7      0.99895    
    6283.7      0.99896    
    6303.7      0.99897    
    6323.7      0.99898    
    6343.7      0.99899    
    6363.6      0.99900    
    6383.6      0.99901    
    6403.6      0.99901    
    6423.6      0.99902    
    6443.6      0.99903    
    6463.5      0.99904    
    6483.5      0.99905    
    6503.5      0.99906    
    6523.5      0.99907    
    6543.5      0.99907    
    6563.4      0.99908    
    6583.4      0.99909    
    6603.4      0.99910    
    6623.4      0.99911    
    6643.4      0.99911    
    6663.3      0.99912    
    6683.3      0.99913    
    6703.3      0.99914    
    6723.3      0.99914    
    6743.3      0.99915    
    6763.2      0.99916    
    6783.2      0.99917    
    6803.2      0.99917    
    6823.2      0.99918    
    6843.2      0.99919    
    6863.1      0.99919    
    6883.1      0.99920    
    6903.1      0.99921    
    6923.1      0.99921    
    6943.1      0.99922    
    6963.0      0.99923    
    6983.0      0.99923    
    7003.0      0.99924    
    7023.0      0.99925    
    7043.0      0.99925    
    7062.9      0.99926    
    7082.9      0.99926    
    7102.9      0.99927    
    7122.9      0.99928    
    7142.9      0.99928    
    7162.8      0.99929    
    7182.8      0.99929    
    7202.8      0.99930    
    7222.8      0.99931    
    7242.8      0.99931    
    7262.7      0.99932    
    7282.7      0.99932    
    7302.7      0.99933    
    7322.7      0.99933    
    7342.7      0.99934    
    7362.6      0.99934    
    7382.6      0.99935    
    7402.6      0.99935    
    7422.6      0.99936    
    7442.6      0.99936    
    7462.5      0.99937    
    7482.5      0.99937    
    7502.5      0.99938    
    7522.5      0.99938    
    7542.5      0.99939    
    7562.4      0.99939    
    7582.4      0.99940    
    7602.4      0.99940    
    7622.4      0.99941    
    7642.4      0.99941    
    7662.3      0.99942    
    7682.3      0.99942    
    7702.3      0.99942    
    7722.3      0.99943    
    7742.3      0.99943    
    7762.2      0.99944    
    7782.2      0.99944    
    7802.2      0.99945    
    7822.2      0.99945    
    7842.2      0.99945    
    7862.1      0.99946    
    7882.1      0.99946    
    7902.1      0.99947    
    7922.1      0.99947    
    7942.1      0.99947    
    7962.0      0.99948    
    7982.0      0.99948    
    8002.0      0.99949    
    8022.0      0.99949    
    8042.0      0.99949    
    8061.9      0.99950    
    8081.9      0.99950    
    8101.9      0.99950    
    8121.9      0.99951    
    8141.9      0.99951    
    8161.8      0.99951    
    8181.8      0.99952    
    8201.8      0.99952    
    8221.8      0.99952    
    8241.8      0.99953    
    8261.7      0.99953    
    8281.7      0.99953    
    8301.7      0.99954    
    8321.7      0.99954    
    8341.7      0.99954    
    8361.6      0.99955    
    8381.6      0.99955    
    8401.6      0.99955    
    8421.6      0.99956    
    8441.6      0.99956    
    8461.5      0.99956    
    8481.5      0.99957    
    8501.5      0.99957    
    8521.5      0.99957    
    8541.5      0.99957    
    8561.4      0.99958    
    8581.4      0.99958    
    8601.4      0.99958    
    8621.4      0.99959    
    8641.4      0.99959    
    8661.3      0.99959    
    8681.3      0.99959    
    8701.3      0.99960    
    8721.3      0.99960    
    8741.3      0.99960    
    8761.2      0.99961    
    8781.2      0.99961    
    8801.2      0.99961    
    8821.2      0.99961    
    8841.2      0.99962    
    8861.1      0.99962    
    8881.1      0.99962    
    8901.1      0.99962    
    8921.1      0.99963    
    8941.1      0.99963    
    8961.0      0.99963    
    8981.0      0.99963    
    9001.0      0.99964    
    9021.0      0.99964    
    9041.0      0.99964    
    9060.9      0.99964    
    9080.9      0.99964    
    9100.9      0.99965    
    9120.9      0.99965    
    9140.9      0.99965    
    9160.8      0.99965    
    9180.8      0.99966    
    9200.8      0.99966    
    9220.8      0.99966    
    9240.8      0.99966    
    9260.7      0.99966    
    9280.7      0.99967    
    9300.7      0.99967    
    9320.7      0.99967    
    9340.7      0.99967    
    9360.6      0.99968    
    9380.6      0.99968    
    9400.6      0.99968    
    9420.6      0.99968    
    9440.6      0.99968    
    9460.5      0.99969    
    9480.5      0.99969    
    9500.5      0.99969    
    9520.5      0.99969    
    9540.5      0.99969    
    9560.4      0.99969    
    9580.4      0.99970    
    9600.4      0.99970    
    9620.4      0.99970    
    9640.4      0.99970    
    9660.3      0.99970    
    9680.3      0.99971    
    9700.3      0.99971    
    9720.3      0.99971    
    9740.3      0.99971    
    9760.2      0.99971    
    9780.2      0.99971    
    9800.2      0.99972    
    9820.2      0.99972    
    9840.2      0.99972    
    9860.1      0.99972    
    9880.1      0.99972    
    9900.1      0.99972    
    9920.1      0.99973    
    9940.1      0.99973    
    9960.0      0.99973    
    9980.0      0.99973    
    10000.      0.99973    
